%time,field.x,field.y,field.theta
493640000000,62.9998682264,12.0000001833,8.54505427832e-08
493741000000,62.9998681941,12.0000001833,8.54705682702e-08
493840000000,62.9998681725,12.0000001834,8.54839192028e-08
493941000000,62.9998681402,12.0000001834,8.55039464894e-08
494040000000,62.9998681186,12.0000001834,8.55172832632e-08
494140000000,62.9998680863,12.0000001835,8.55372962472e-08
494240000000,62.9998680648,12.0000001835,8.55506471329e-08
494340000000,62.9998680325,12.0000001835,8.55706749069e-08
494440000000,62.9998680109,12.0000001836,8.55840246861e-08
494541000000,62.9998679786,12.0000001836,8.5604052841e-08
494640000000,62.999867957,12.0000001836,8.56174065569e-08
494740000000,62.9998679247,12.0000001837,8.56374278298e-08
494840000000,62.9998679032,12.0000001837,8.56507670101e-08
494940000000,62.9998678708,12.0000001837,8.56707851737e-08
495041000000,62.9998678493,12.0000001838,8.56841311003e-08
495140000000,62.999867817,12.0000001838,8.57041598671e-08
495240000000,62.9998677954,12.0000001838,8.57175158416e-08
495340000000,62.9998677631,12.0000001839,8.57375430628e-08
495440000000,62.9998677416,12.0000001839,8.5750898649e-08
495541000000,62.9998677092,12.000000184,8.57709228477e-08
495640000000,62.9998676877,12.000000184,8.5784263259e-08
495741000000,62.9998676554,12.000000184,8.58042803094e-08
495840000000,62.9998676338,12.0000001841,8.58176257355e-08
495940000000,62.9998676015,12.0000001841,8.58376524301e-08
496040000000,62.9998675799,12.0000001841,8.58510052158e-08
496140000000,62.9998675476,12.0000001842,8.5871030782e-08
496241000000,62.9998675261,12.0000001842,8.58843803582e-08
496340000000,62.9998674937,12.0000001842,8.59044049501e-08
496440000000,62.9998674722,12.0000001843,8.59177413212e-08
496540000000,62.9998674399,12.0000001843,8.59377665502e-08
496639000000,62.9998674183,12.0000001843,8.5951112962e-08
496740000000,62.999867386,12.0000001844,8.59711414957e-08
496842000000,62.9998673644,12.0000001844,8.59844947655e-08
496940000000,62.9998673321,12.0000001845,8.60045222384e-08
497040000000,62.9998673106,12.0000001845,8.60178719631e-08
497140000000,62.9998672782,12.0000001845,8.60378979849e-08
497240000000,62.9998672567,12.0000001846,8.60512336474e-08
497340000000,62.9998672244,12.0000001846,8.60712628758e-08
497440000000,62.9998672028,12.0000001846,8.60846103496e-08
497540000000,62.9998671705,12.0000001847,8.61046363356e-08
497640000000,62.9998671489,12.0000001847,8.61179900429e-08
497741000000,62.9998671166,12.0000001847,8.61380161661e-08
497841000000,62.9998670951,12.0000001848,8.6151365334e-08
497940000000,62.9998670627,12.0000001848,8.61713754091e-08
498041000000,62.9998670412,12.0000001848,8.61847194925e-08
498140000000,62.9998670089,12.0000001849,8.62047437885e-08
498240000000,62.9998669873,12.0000001849,8.6218094181e-08
498340000000,62.999866955,12.000000185,8.62381206921e-08
498440000000,62.9998669334,12.000000185,8.62514726009e-08
498540000000,62.9998669011,12.000000185,8.62714982746e-08
498640000000,62.9998668796,12.0000001851,8.62848508341e-08
498740000000,62.9998668472,12.0000001851,8.63048562405e-08
498840000000,62.9998668257,12.0000001851,8.63182010377e-08
498940000000,62.9998667934,12.0000001852,8.63382323742e-08
499040000000,62.9998667718,12.0000001852,8.63515817851e-08
499140000000,62.9998667395,12.0000001852,8.63716106977e-08
499240000000,63.0524283778,11.9991062291,-0.057518388758
499340000000,63.1587280359,11.9880032082,-0.174528824844
499440000000,63.2285593585,11.9737326834,-0.252535782125
499540000000,63.3306924485,11.9422409978,-0.369546217931
499640000000,63.3964346758,11.9147088159,-0.447553175026
499740000000,63.4905442688,11.8640483096,-0.563581416323
499840000000,63.5497799001,11.824408136,-0.639083955452
499940000000,63.632674156,11.7569348674,-0.750197415126
500040000000,63.6836015056,11.7070671004,-0.82222820208
500141000000,63.7530175808,11.6257865503,-0.928057542522
500240000000,63.7944090912,11.5677579764,-0.996469597366
500340000000,63.8489144747,11.4758053174,-1.09680110325
500440000000,63.8800738525,11.4116972768,-1.16154547538
500540000000,63.9189778704,11.3121304179,-1.25636641238
500640000000,63.9396620906,11.2439169713,-1.31745468846
500740000000,63.9628947702,11.1395703282,-1.40675642759
500840000000,63.9732376338,11.0690430865,-1.46413926886
500940000000,63.9812399125,10.9624372805,-1.54784584665
501040000000,63.9816778258,10.8911559912,-1.60146028975
501140000000,63.9752832558,10.7844379252,-1.67952692471
501240000000,63.9664727651,10.713700908,-1.72934776969
501340000000,63.9467909917,10.6086151417,-1.80168358459
501441000000,63.9295407055,10.5394493608,-1.84763916764
501540000000,63.8978621308,10.4373339237,-1.91414369009
501641000000,63.8730702202,10.3704986366,-1.95616904814
501740000000,63.830783368,10.2722969013,-2.01664181102
501840000000,63.7993943025,10.2082935428,-2.05458072414
501941000000,63.7479249275,10.114574409,-2.10882691266
502040000000,63.7108887458,10.053663614,-2.14247615909
502140000000,63.6516507476,9.96464789661,-2.19020285599
502240000000,63.6098959812,9.90686872864,-2.21935695789
502340000000,63.5442571685,9.82245901634,-2.26015551215
502440000000,63.4986767262,9.76764667134,-2.28450620964
502540000000,63.4279513144,9.68744798653,-2.3177560793
502640000000,63.3794109061,9.63523817738,-2.33666153032
502740000000,63.3048941756,9.55854680835,-2.36126339822
502840000000,63.2542663365,9.50835811331,-2.37355202615
502940000000,63.1773426478,9.43407912251,-2.38658983656
503040000000,63.1252574791,9.38540587709,-2.38427135238
503141000000,63.047437029,9.31206704274,-2.37219633552
503240000000,62.9961475175,9.26255490491,-2.36029735282
503340000000,62.9204318583,9.18704642187,-2.33957500532
503441000000,62.8708723123,9.13580296778,-2.32411848824
503540000000,62.7980654342,9.0574866675,-2.30035602799
503640000000,62.7505588396,9.00433437114,-2.28519644612
503740000000,62.6807801688,8.92330777427,-2.26383796954
503840000000,62.6351839273,8.86850770864,-2.25158581461
503940000000,62.5679620017,8.78534670901,-2.23600725113
504040000000,62.5237803071,8.72939973087,-2.22956710687
504141000000,62.4586172491,8.64461746742,-2.22957555643
504241000000,62.4152043962,8.58807173193,-2.23638773337
504340000000,62.3491862991,8.50395153468,-2.25086912106
504440000000,62.304437476,8.44845714509,-2.26288188278
504540000000,62.2359994654,8.36629445963,-2.28272398621
504640000000,62.1894543171,8.3122979354,-2.29653091473
504740000000,62.1182532698,8.23251783399,-2.31688938246
504841000000,62.0699138729,8.18012140525,-2.32930134334
504940000000,61.9962509662,8.10260801684,-2.34609795965
505040000000,61.9464768392,8.05157242624,-2.35476412999
505140000000,61.8711077434,7.97571615885,-2.36389422441
505240000000,61.8201543418,7.92585934659,-2.36161048782
505340000000,61.7439572571,7.85083506527,-2.35155427409
505440000000,61.6936598149,7.80031533318,-2.34165056156
505540000000,61.6192515234,7.72351756398,-2.32422862591
505641000000,61.570434922,7.67156569304,-2.31099023419
505740000000,61.4985464844,7.59240478546,-2.29037646546
505840000000,61.4515321885,7.53881642999,-2.27687090043
505940000000,61.3823693883,7.45726325376,-2.25677051463
506040000000,61.3710022333,7.44353660348,-2.25342044419
506140000000,61.3710022539,7.44353662882,-2.25342044684
506240000000,61.3710022675,7.44353664554,-2.25342044689
506340000000,61.3710022879,7.44353667059,-2.25342044688
506440000000,61.3710023015,7.4435366873,-2.25342044687
506540000000,61.3249319942,7.38914769417,-2.31500506815
506641000000,61.2756075213,7.33768912173,-2.37660123553
506740000000,61.1959185355,7.26643502319,-2.46899548647
506840000000,61.1392848779,7.22315087857,-2.53059165366
506940000000,61.0496097259,7.16496283756,-2.62298590435
507040000000,60.9870175154,7.13085786627,-2.68355775666
507140000000,60.8895792463,7.08688262608,-2.77250180683
507240000000,60.8226376861,7.06238971707,-2.82969866971
507340000000,60.7199029666,7.03281866343,-2.91317280996
507441000000,60.6502116826,7.01784041082,-2.96655777722
507541000000,60.5444399087,7.00228309094,-3.04416908521
507640000000,60.4733982209,6.99641403483,-3.09351611527
507740000000,60.3665102284,6.99407800173,3.11820453544
507840000000,60.295273321,6.99668672105,3.0730265322
507940000000,60.1888076596,7.00650093986,3.00791289949
508040000000,60.1182708219,7.01680539905,2.96703415375
508140000000,60.0133761757,7.03751935874,2.90845948582
508240000000,59.9441779568,7.05464672491,2.87200311872
508339000000,59.8416260151,7.08490721018,2.82022892297
508441000000,59.7741590742,7.10793014592,2.78847008175
508540000000,59.6743634384,7.14632298325,2.74382659437
508640000000,59.6087909611,7.17429053166,2.71702577276
508740000000,59.5118323752,7.21937637083,2.68005945052
508840000000,59.4481014409,7.25131971866,2.65868151693
508940000000,59.3537413098,7.30162199781,2.63028978971
509041000000,59.2915857033,7.33653257529,2.61521771024
509141000000,59.199250587,7.39046536798,2.59724746257
509240000000,59.1381408509,7.42717635042,2.59182374312
509340000000,59.0470634186,7.48320567376,2.59641262693
509440000000,58.9862052667,7.52033195475,2.6063651045
509540000000,58.8941308785,7.57470805086,2.62512258949
509640000000,58.8321509522,7.60992928182,2.63980383383
509740000000,58.7381918538,7.6609781289,2.66321684102
509840000000,58.6748954,7.69377443926,2.67881980111
509940000000,58.5790257408,7.741138383,2.70123557592
510040000000,58.5145549999,7.77156175726,2.71443482288
510140000000,58.4171543072,7.81569338467,2.73174501899
510240000000,58.3518418433,7.84426548011,2.73993904163
510340000000,58.2535299095,7.88633012625,2.74669425165
510440000000,58.1876659329,7.91360499075,2.74231502004
510540000000,58.0891017523,7.95507458732,2.72955128768
510640000000,58.0237277086,7.98350557917,2.71832405581
510740000000,57.926318744,8.02761892708,2.69945126125
510841000000,57.8618656757,8.05808001512,2.6858432788
510940000000,57.7659850595,8.10542299955,2.66544024923
511040000000,57.7025965473,8.13804168127,2.6529430067
511140000000,57.6082523213,8.18837768366,2.63607718808
511240000000,57.5457968885,8.22274937909,2.62741038837
511340000000,57.4525947588,8.27517109756,2.61840407781
511440000000,57.3909538896,8.31098110255,2.62088568427
511540000000,57.2983111663,8.36438486664,2.6311783216
511640000000,57.2361924105,8.39936109226,2.64111562521
511741000000,57.142314375,8.45056082322,2.65831798106
511839000000,57.07922357,8.48375134986,2.6711342038
511940000000,56.9837890635,8.53198709194,2.69067517403
512040000000,56.9196590212,8.56312232303,2.70287923379
512140000000,56.8227903837,8.60841004473,2.71963832635
512240000000,56.7578223343,8.63775681912,2.72857359354
512340000000,56.6599454836,8.68082380581,2.73845772714
512440000000,56.5942746194,8.7085597113,2.73703448163
512540000000,56.4958527028,8.75036639192,2.72809184361
512641000000,56.4304945349,8.77883396588,2.71884009621
512740000000,56.3330116276,8.82278436938,2.70242294952
512840000000,56.2684520729,8.85301921074,2.68995705689
512941000000,56.1723497224,8.89991081561,2.67071522228
513040000000,56.1087845753,8.93218395102,2.65848782564
513140000000,56.01416372,8.98199796226,2.64145885921
513240000000,55.9515321554,9.01604763628,2.63211222695
513340000000,55.8581248606,9.06810270087,2.62113394077
513440000000,55.7964076646,9.10378033821,2.62095384753
513540000000,55.7038455377,9.1573239578,2.62802813237
513641000000,55.6418590499,9.19253414923,2.63663741523
513741000000,55.5482490037,9.2442226184,2.65231442106
513840000000,55.4853691478,9.27781115123,2.66450048953
513940000000,55.3902674784,9.32669997186,2.68370732312
514040000000,55.3263527325,9.35827478644,2.69628014859
514140000000,55.2297641444,9.40415644774,2.71419344641
514240000000,55.1649407089,9.43382120909,2.72456259034
514340000000,55.0671798019,9.47715017619,2.73768525498
514440000000,55.0017354365,9.50541896177,2.74274162935
514540000000,54.9030857926,9.54668086931,2.74139759821
514640000000,54.8373228792,9.57420056674,2.7345100816
514740000000,54.7391119557,9.6164997084,2.72055612414
514840000000,54.641577575,9.66033534412,2.70291664933
514940000000,54.5770155598,9.6905648633,2.68980285498
515040000000,54.4968795976,9.72953805722,2.67341060799
515141000000,54.4801328527,9.73788899962,2.6699682358
515240000000,54.480132881,9.73788898509,2.66996823934
515341000000,54.4801329001,9.73788897529,2.66996823945
515440000000,54.4801329289,9.73788896057,2.66996823948
515540000000,54.4801329481,9.73788895076,2.6699682395
515641000000,54.417032757,9.76908751482,2.71365740264
515741000000,54.3518094719,9.79785181302,2.757911077
515840000000,54.2517488812,9.83551923734,2.82429158842
515940000000,54.1837485261,9.85690646332,2.86854526264
516039000000,54.080140869,9.88329604471,2.93492577389
516140000000,54.0101989959,9.89706664279,2.97812641443
516240000000,53.904345767,9.91211555242,3.04086176248
516340000000,53.8333485891,9.91851895238,3.08040073703
516440000000,53.7265206668,9.92296895776,3.13713771248
516541000000,53.6552352457,9.92264699946,-3.1107998535
516640000000,53.5306607256,9.91623237096,-3.05264012492
516740000000,53.4596975228,9.90944562332,-3.02285596455
516840000000,53.37132069,9.89805866046,-2.98767341247
516940000000,53.3009287153,9.88679419901,-2.9623622796
517040000000,53.1959010658,9.86672043691,-2.92780607523
517140000000,53.1262688944,9.85144409422,-2.90875390416
517240000000,53.0223491716,9.82624571193,-2.88444652852
517340000000,52.953391613,9.80816478015,-2.87205637846
517440000000,52.8503264475,9.77966629179,-2.85885800607
517540000000,52.7819359651,9.75954936894,-2.86123241537
517641000000,52.6792192411,9.72981888581,-2.87366207116
517740000000,52.6105034277,9.71083944263,-2.88567599637
517840000000,52.5069804946,9.6840543651,-2.90637143374
517940000000,52.4376541354,9.66744354305,-2.92171265508
518040000000,52.3331997337,9.6445606228,-2.94509654067
518140000000,52.2632828942,9.63064286093,-2.95976010089
518240000000,52.158056177,9.61162209152,-2.98006250518
518340000000,52.0877107022,9.60006353146,-2.99130799077
518440000000,51.9819814744,9.58406532719,-3.00480899907
518540000000,51.9113931859,9.57409903136,-3.00812136905
518640000000,51.8053907924,9.56003144892,-3.0031964104
518740000000,51.734754181,9.550411148,-2.99451267194
518840000000,51.6289862506,9.53467359232,-2.97838756671
518940000000,51.5586315045,9.52317262803,-2.96580489809
519040000000,51.4533961497,9.50420059144,-2.94581646681
519140000000,51.3834594744,9.49038319033,-2.93268432802
519240000000,51.2789004569,9.46798063113,-2.91414629378
519340000000,51.2094203528,9.45202475849,-2.90369139886
519440000000,51.1054939618,9.42684735253,-2.89080206876
519540000000,51.0363617539,9.40944552365,-2.88686666037
519640000000,50.9329286114,9.38231696934,-2.89045693918
519741000000,50.8639365916,9.36436717862,-2.89831559687
519840000000,50.7947894816,9.34702446518,-2.90796211968
519940000000,50.6733541307,9.31844139743,-2.92807211878
520040000000,50.5862562488,9.29960929673,-2.94393398485
520140000000,50.5163693137,9.28554172055,-2.95649199635
520240000000,50.411228128,9.2660519357,-2.97429231548
520340000000,50.3409550959,9.25406072297,-2.98493421432
520440000000,50.2353369919,9.23734400863,-2.99713211161
520540000000,50.1648364346,9.22677225292,-3.00070279953
520640000000,50.0589392031,9.21193496196,-2.9969958455
520740000000,49.9883593165,9.20190675646,-2.98928650552
520840000000,49.8826647822,9.18568253031,-2.9745194671
520940000000,49.8123506116,9.17393576406,-2.96282797636
521040000000,49.7071603168,9.1547143442,-2.94415655877
521140000000,49.6372418992,9.14080462857,-2.9317847224
521240000000,49.5326926328,9.11835593233,-2.9142339795
521340000000,49.4632071131,9.10242354315,-2.90434118478
521440000000,49.3592551562,9.07735156661,-2.89222958781
521540000000,49.2900989622,9.06004585891,-2.88887442727
521640000000,49.1866053543,9.03314859666,-2.89289000878
521741000000,49.1175698177,9.0153669158,-2.90071067637
521840000000,49.0137244557,8.9898575408,-2.91543255999
521940000000,48.9442764722,8.97376215104,-2.9270437617
522041000000,48.8397522051,8.95119721038,-2.94561712236
522140000000,48.7698432487,8.93723944918,-2.95790752364
522240000000,48.6646779772,8.91787982305,-2.97531356038
522340000000,48.5943962428,8.90593962639,-2.98511259403
522440000000,48.4887806514,8.88920695292,-2.99709203384
522540000000,48.4182764049,8.87866146338,-3.00030142126
522640000000,48.3123858854,8.86377579001,-2.99615032459
522740000000,48.2418153382,8.85368207248,-2.9883030453
522840000000,48.1361369175,8.8373531652,-2.97356252942
522940000000,48.0658337589,8.82554064372,-2.96191968388
523040000000,47.9606602569,8.8062274634,-2.94333372785
523140000000,47.8907529007,8.79226222983,-2.9310309014
523240000000,47.7862195496,8.76973946059,-2.91357630606
523340000000,47.7167442689,8.75376246562,-2.9037103721
523440000000,47.6128081608,8.728624856,-2.89158301823
523540000000,47.5436603712,8.71128517289,-2.88807379191
523641000000,47.4401887861,8.68430358286,-2.89177098797
523740000000,47.3711739711,8.66644165313,-2.8995010766
523841000000,47.2673609995,8.64080075042,-2.91411453761
523940000000,47.1979342107,8.62461419605,-2.92573679121
524040000000,47.0934390594,8.60191486421,-2.9443745646
524140000000,47.023546815,8.58787369491,-2.95680553205
524240000000,46.9184004241,8.56841200983,-2.97453523197
524340000000,46.8481263127,8.55642708545,-2.98469852029
524440000000,46.7425124198,8.53968405971,-2.99743134415
524540000000,46.6720051476,8.52915707633,-3.0019113268
524640000000,46.5660814214,8.5145112478,-2.9994480745
524740000000,46.495475064,8.50467102187,-2.99218386881
524840000000,46.3897294326,8.48878272185,-2.97801495127
524940000000,46.3193731433,8.47729078691,-2.96656177864
525040000000,46.2141107518,8.45846806736,-2.94793947011
525140000000,46.1441414068,8.44481684572,-2.93529495864
525240000000,46.039520632,8.42270419073,-2.91700940599
525341000000,45.9699963924,8.40694169937,-2.90625799955
525440000000,45.8660159447,8.38198877181,-2.89230626774
525540000000,45.7968707753,8.36463838638,-2.88622753271
525640000000,45.6934886398,8.33731916256,-2.8853964285
525740000000,45.6246027985,8.31896642138,-2.89127518589
525840000000,45.5210246513,8.29239226399,-2.90431527709
525940000000,45.451764725,8.27550590554,-2.91535842256
526041000000,45.3475152775,8.25170343706,-2.93373240837
526140000000,45.2777741182,8.23693018399,-2.94669529701
526240000000,45.1728172892,8.21647180576,-2.96596841681
526341000000,45.1026400449,8.2039323479,-2.97785185176
526440000000,44.9971177862,8.18662308392,-2.99409194907
526540000000,44.9266291904,8.17597173131,-3.00267251111
526640000000,44.8207522282,8.16098051105,-3.01203573466
526740000000,44.7500317877,8.15200508237,-3.01049161587
526840000000,44.6439781372,8.13832010688,-3.00134115293
526941000000,44.573356547,8.12858980182,-2.99420260282
527040000000,44.5380722512,8.12353565297,-2.99063332335
527140000000,44.5380722726,8.12353565621,-2.99063332424
527240000000,44.5380723046,8.12353566104,-2.99063332432
527340000000,44.5380723259,8.12353566425,-2.99063332431
527440000000,44.5380723579,8.12353566907,-2.99063332429
527541000000,44.4852795203,8.11509557014,-2.95662731045
527640000000,44.3806993015,8.09287530759,-2.88859259472
527740000000,44.3119232206,8.07413288629,-2.8432361176
527840000000,44.2105287905,8.04022224106,-2.77520140199
527940000000,44.111674255,7.99949702702,-2.70716668647
528040000000,44.0473944136,7.96868202325,-2.66289066849
528140000000,43.9845238913,7.93508421288,-2.62031304206
528240000000,43.8929800664,7.87984602875,-2.5589485773
528340000000,43.8338645274,7.84000903017,-2.52048096776
528440000000,43.748079592,7.77618726803,-2.466444215
528540000000,43.6928002439,7.73117674111,-2.43279435946
528640000000,43.6127220683,7.66032256923,-2.38499510558
528740000000,43.561192652,7.6110623,-2.35608318853
528840000000,43.4865131237,7.53453530473,-2.31597905095
528940000000,43.4383832201,7.48194766747,-2.29242533507
529041000000,43.3684188269,7.40108415982,-2.26066390894
529140000000,43.3231293773,7.34603064136,-2.24316826076
529240000000,43.2568637014,7.2621067546,-2.22123133783
